X(E/m),Y(N/m)
330316.759970109444112,4156620.721868811175227
330316.689513120916672,4156620.734409095253795
330316.609993934864178,4156620.736033958382905
330316.539536944415886,4156620.748574245255440
330316.407231700140983,4156620.762378315906972
330316.310268315603025,4156620.775460225995630
330316.213304931181483,4156620.788542135618627
330316.107506082393229,4156620.801804589107633
330316.001480502309278,4156620.803971081972122
330315.895681653812062,4156620.817233537789434
330315.780820609070361,4156620.819580574985594
330315.675021760980599,4156620.832843033596873
330315.578058377956040,4156620.845924951136112
330315.472259530331939,4156620.859187412541360
330315.366460682940669,4156620.872449874877930
330315.260661835898645,4156620.885712339077145
330315.163698453863617,4156620.898794262204319
330315.049064142571297,4156620.912237271200866
330314.943492029095069,4156620.936595700681210
330314.811186789185740,4156620.950399796478450
330314.696779209771194,4156620.974938772618771
330314.564700704067945,4156620.999838833231479
330314.432622198830359,4156621.024738898500800
330314.291934961220250,4156621.060915469657630
330314.151247726986185,4156621.097092041745782
330314.001498292956967,4156621.122353198938072
330313.869419791037217,4156621.147253272123635
330313.719670360675082,4156621.172514433972538
330313.578983128070831,4156621.208691017702222
330313.438069163821638,4156621.233771640807390
330313.288319736020640,4156621.259032812435180
330313.129508106969297,4156621.273378567304462
330312.988594144931994,4156621.298459198791534
330312.838844716898166,4156621.323720376472920
330312.688641820102930,4156621.326789636630565
330312.530056931194849,4156621.352231363765895
330312.388689496845473,4156621.355120083317161
330312.230331343249418,4156621.391657779924572
330312.071292983135208,4156621.394907593727112
330311.921316824038513,4156621.409072826616466
330311.762278461712413,4156621.412322647403926
330311.612302303256001,4156621.426487887278199
330311.453490678570233,4156621.440833674278110
330311.303514520754106,4156621.454998919740319
330311.144929634756409,4156621.480440676212311
330310.986118013737723,4156621.494786472059786
330310.835915116593242,4156621.497855762951076
330310.686165698920377,4156621.523116982541978
330310.518745351349935,4156621.548739296384156
330310.368542457174044,4156621.551808597054332
330310.209957577171735,4156621.577250369824469
330310.051145956327673,4156621.591596184764057
330309.892334338161163,4156621.605942002497613
330309.724913993733935,4156621.631564333569258
330309.574937838362530,4156621.645729608833790
330309.407517497660592,4156621.671351946424693
330309.248932619695552,4156621.696793738752604
330309.090347744757310,4156621.722235533408821
330308.940598332439549,4156621.747496782802045
330308.781559976865537,4156621.750746660865843
330308.632037307019345,4156621.787103877402842
330308.473225693567656,4156621.801449723541737
330308.314640819968190,4156621.826891533564776
330308.164891413412988,4156621.852152797393501
330307.997471077367663,4156621.877775162458420
330307.839112948626280,4156621.914312941953540
330307.689136801986024,4156621.928478253539652
330307.521716468560044,4156621.954100629314780
330307.372193808900192,4156621.990457868669182
330307.213608943449799,4156622.015899700578302
330307.045961869182065,4156622.030426124110818
330306.887603746610694,4156622.066963922698051
330306.729018883546814,4156622.092405763454735
330306.570434019027743,4156622.117847606539726
330306.412075901869684,4156622.154385415371507
330306.235593367251568,4156622.169092406984419
330306.077461997047067,4156622.216726183425635
330305.892597490281332,4156622.253805657383054
330305.716114958107937,4156622.268512659240514
330305.531250455882400,4156622.305592140648514
330305.337550489348359,4156622.342852178961039
330305.152685987879522,4156622.379931671079248
330304.949923814507201,4156622.406276308465749
330304.756223852164112,4156622.443536361679435
330304.562750638171565,4156622.491892380174249
330304.404392535041552,4156622.528430227190256
330304.219301293487661,4156622.554413777310401
330304.069551908527501,4156622.579675114713609
330303.910740311141126,4156622.594021048396826
330303.743093250668608,4156622.608547539915890
330303.584281656250823,4156622.622893479652703
330303.416634596651420,4156622.637419976759702
330303.231316613033414,4156622.652307586278766
330303.063669554307126,4156622.666834090836346
330302.878805067506619,4156622.703913633245975
330302.711384759168141,4156622.729536105878651
330302.535128990886733,4156622.755339138675481
330302.350037757889368,4156622.781322729773819
330302.173781991470605,4156622.807125772349536
330301.997526221210137,4156622.832928813528270
330301.812661743839271,4156622.870008379686624
330301.644787939614616,4156622.873438952025026
330301.468532174127176,4156622.899242005776614
330301.292276411899365,4156622.925045066513121
330301.115793896722607,4156622.939752165693790
330300.930702672922052,4156622.965735791251063
330300.753993406891823,4156622.969346938654780
330300.568675430025905,4156622.984234606381506
330300.401255134260282,4156623.009857126977295
330300.215937158500310,4156623.024744805414230
330300.039454646117520,4156623.039451930671930
330299.854136671172455,4156623.054339616093785
330299.686716378259007,4156623.079962150193751
330299.519069330417551,4156623.094488727860153
330299.333751356927678,4156623.109376425854862
330299.166331063956022,4156623.134998971130699
330298.981013093900401,4156623.149886676110327
330298.813592802442145,4156623.175509227905422
330298.637337048945483,4156623.201312344521284
330298.461081298533827,4156623.227115463465452
330298.284825546899810,4156623.252918587531894
330298.108796551590785,4156623.289817677345127
330297.932540804147720,4156623.315620807465166
330297.747449592454359,4156623.341604502871633
330297.562358381866943,4156623.367588203400373
330297.377267174422741,4156623.393571906723082
330297.183567257365212,4156623.430832137353718
330296.998476051958278,4156623.456815847661346
330296.813611602643505,4156623.493895526975393
330296.637582617229782,4156623.530794647987932
330296.452491415198892,4156623.556778371799737
330296.276462432462722,4156623.593677501194179
330296.091371230199002,4156623.619661233853549
330295.906506787403487,4156623.656740932259709
330295.721642348216847,4156623.693820633459836
330295.536777908331715,4156623.730900340713561
330295.351913469843566,4156623.767980053089559
330295.167275792278815,4156623.816155729349703
330294.982411359203979,4156623.853235448710620
330294.806382387527265,4156623.890134610235691
330294.612682492705062,4156623.927394901867956
330294.445715746609494,4156623.975209467578679
330294.269460020936094,4156624.001012676395476
330294.093657815712504,4156624.049007813446224
330293.925784029881470,4156624.052438541781157
330293.749528304615524,4156624.078241762239486
330293.581881283025723,4156624.092768460046500
330293.405172035563737,4156624.096379763912410
330293.237751776701771,4156624.122002430725843
330293.052433829871006,4156624.136890270281583
330292.876178108039312,4156624.162693508435041
330292.700149152195081,4156624.199592715129256
330292.506222508382052,4156624.225757092703134
330292.329966789518949,4156624.251560344826430
330292.145102373207919,4156624.288640127982944
330291.968846658710390,4156624.314443385694176
330291.783982244902290,4156624.351523178629577
330291.590055606327951,4156624.377687579486519
330291.414026657002978,4156624.414586811792105
330291.229162249597721,4156624.451666615437716
330291.044297841261141,4156624.488746424205601
330290.859206669090781,4156624.514730275608599
330290.674569029011764,4156624.562906052917242
330290.489477859227918,4156624.588889912702143
330290.304386692587286,4156624.614873774349689
330290.128130986355245,4156624.640677073039114
330289.943039819365367,4156624.666660944931209
330289.766784117207862,4156624.692464250139892
330289.581466185103636,4156624.707352167461067
330289.404983715037815,4156624.722059520427138
330289.219892551307566,4156624.748043406754732
330289.025965929031372,4156624.774207867681980
330288.849483460769989,4156624.788915231358260
330288.655556838028133,4156624.815079702530056
330288.461403447668999,4156624.830148215405643
330288.267023289052304,4156624.834120769985020
330288.090767591493204,4156624.859924111980945
330287.887778743286617,4156624.875173210166395
330287.685016662813723,4156624.901518275029957
330287.490863275015727,4156624.916586809325963
330287.288101196289062,4156624.942931883037090
330287.094174580066465,4156624.969096389599144
330286.891412503318861,4156624.995441474486142
330286.697259118198417,4156625.010510028339922
330286.503332504595164,4156625.036674548871815
330286.300570430583321,4156625.063019648194313
330286.089199667971116,4156625.100641285534948
330285.886664368386846,4156625.138082357123494
330285.683902297983877,4156625.164427470415831
330285.472304767405149,4156625.190953162964433
330285.261160783469677,4156625.239670785143971
330285.067007407138590,4156625.254739376716316
330284.864472112269141,4156625.292180473916233
330284.661936823453289,4156625.329621574375778
330284.477072456153110,4156625.366701530758291
330284.291981316229794,4156625.392685528844595
330284.107116951607168,4156625.429765492677689
330283.922025815991219,4156625.455749498680234
330283.728325990727171,4156625.493010048288852
330283.543234857264906,4156625.518994063604623
330283.358597273239866,4156625.567170006223023
330283.156061993795447,4156625.604611143469810
330282.962362176680472,4156625.641871711239219
330282.759373347857036,4156625.657120933756232
330282.565446756896563,4156625.683285548351705
330282.380355629953556,4156625.709269590210170
330282.186202263925225,4156625.724338250234723
330281.983666991931386,4156625.761779417283833
330281.780678166600410,4156625.777028664480895
330281.577916119480506,4156625.803373879287392
330281.366318612592295,4156625.829899676609784
330281.172165249940008,4156625.844968362245709
330280.968949648435228,4156625.849121667444706
330280.766187604633160,4156625.875466901808977
330280.554363321862184,4156625.890896758064628
330280.342765819048509,4156625.917422581929713
330280.139776998374145,4156625.932671871036291
330279.936334618076216,4156625.925729237962514
330279.724963897606358,4156625.963351041544229
330279.512912837089971,4156625.967684962321073
330279.310377579531632,4156626.005126194097102
330279.107388763688505,4156626.020375508349389
330278.896018048166297,4156626.057997330557555
330278.684420550416689,4156626.084523198194802
330278.481885298388079,4156626.121964453253895
330278.270061023067683,4156626.137394366785884
330278.067525773716625,4156626.174835630226880
330277.873825988615863,4156626.212096316274256
330277.680126202758402,4156626.249357008840889
330277.494808312330861,4156626.264245196711272
330277.310170772834681,4156626.312421276234090
330277.116697774908971,4156626.360777942463756
330276.914162536966614,4156626.398219235707074
330276.720235972083174,4156626.424383987206966
330276.543980333022773,4156626.450187576003373
330276.367951477644965,4156626.487087131012231
330276.200758085935377,4156626.523806107696146
330276.024048877414316,4156626.527417782694101
330275.812678184593096,4156626.565039685927331
330275.645031222607940,4156626.579566748347133
330275.451104666455649,4156626.605731529649347
330275.257178111467510,4156626.631896314211190
330275.063024773029611,4156626.646965143270791
330274.851427299552597,4156626.673491107765585
330274.657273960066959,4156626.688559946604073
330274.436841028276831,4156626.715266508050263
330274.233852229896002,4156626.730515941046178
330274.022254757815972,4156626.757041927892715
330273.819492751150392,4156626.783387333154678
330273.607441706350073,4156626.787721406202763
330273.395844239043072,4156626.814247408416122
330273.193082232726738,4156626.840592830907553
330272.998928898072336,4156626.855661706533283
330272.796166893502232,4156626.882007138337940
330272.593404889921658,4156626.908352574799210
330272.390416097245179,4156626.923602052498609
330272.188107676221989,4156626.972139422781765
330271.967901547090150,4156627.009942012839019
330271.782810467761010,4156627.035926292650402
330271.562604341539554,4156627.073728893883526
330271.360069136426318,4156627.111170322168618
330271.157760724774562,4156627.159707718528807
330270.954998731031083,4156627.186053195036948
330270.744081655750051,4156627.245867152232677
330270.541319664916955,4156627.272212638985366
330270.321340341703035,4156627.321111235301942
330270.110196480294690,4156627.369829249102622
330269.889763574639801,4156627.396535931155086
330269.669557463959791,4156627.434338582213968
330269.458186814328656,4156627.471960648428649
330269.237980706850067,4156627.509763311594725
330269.017774601234123,4156627.547565981280059
330268.806630751467310,4156627.596284027211368
330268.586424649460241,4156627.634086707141250
330268.365764955757186,4156627.649697468616068
330268.163456573034637,4156627.698234937619418
330267.960694598034024,4156627.724580488633364
330267.767221675952896,4156627.772937376517802
330267.564232906908728,4156627.788186975289136
330267.370533191249706,4156627.825447909068316
330267.176606679975521,4156627.851612885016948
330266.991742426063865,4156627.888693235348910
330266.788753660221118,4156627.903942852746695
330266.594827151857316,4156627.930107841268182
330266.392065187683329,4156627.956453431397676
330266.197911882831249,4156627.971522468142211
330265.986314456793480,4156627.998048662673682
330265.792161155375652,4156628.013117707334459
330265.580563733470626,4156628.039643910713494
330265.386410430946853,4156628.054712968878448
330265.183421669993550,4156628.069962624460459
330264.980659709544852,4156628.096308246720582
330264.777670949755702,4156628.111557913944125
330264.592353108339012,4156628.126446391921490
330264.398653410142288,4156628.163707397412509
330264.204500113381073,4156628.178776480257511
330264.019409075146541,4156628.204760935623199
330263.834091236232780,4156628.219649431761354
330263.649227001471445,4156628.256729856133461
330263.455073707387783,4156628.271798958536237
330263.261374014022294,4156628.309059989638627
330263.067220721277408,4156628.324129099957645
330262.873294229793828,4156628.350294176954776
330262.714709574065637,4156628.375736868008971
330262.520556280971505,4156628.390805991366506
330262.353136170306243,4156628.416429286357015
330262.176880599581636,4156628.442233184352517
330262.009460488450713,4156628.467856485862285
330261.842040380463004,4156628.493479792028666
330261.657176158332732,4156628.530560262035578
330261.472085135115776,4156628.556544773280621
330261.295829569105990,4156628.582348687574267
330261.110965350759216,4156628.619429171085358
330260.926327939436305,4156628.667605620343238
330260.741010112571530,4156628.682494186330587
330260.564981359057128,4156628.719394080340862
330260.371054881368764,4156628.745559216942638
330260.204088393074926,4156628.793374482542276
330260.019224185263738,4156628.830454988405108
330259.851804086298216,4156628.856078334618360
330259.675775337149389,4156628.892978248652071
330259.499746589281131,4156628.929878165014088
330259.323491037357599,4156628.955682123545557
330259.147462291992269,4156628.992582049220800
330258.980269006220624,4156629.029301375150681
330258.804240265861154,4156629.066201307810843
330258.636820174055174,4156629.091824678704143
330258.469853703165427,4156629.139639977831393
330258.284762697410770,4156629.165624562650919
330258.126404876005836,4156629.202163303270936
330257.950149330368731,4156629.227967291139066
330257.791791513503995,4156629.264506037812680
330257.624598237802275,4156629.301225394010544
330257.457631775876507,4156629.349040713626891
330257.290438502968755,4156629.385760075412691
330257.123245233553462,4156629.422479437664151
330256.947216505534016,4156629.459379411302507
330256.788858694257215,4156629.495918177999556
330256.613056782516651,4156629.543914120178670
330256.454698974033818,4156629.580452893394977
330256.296567980898544,4156629.628087632823735
330256.137983363121748,4156629.653530450537801
330255.971016913070343,4156629.701345801819116
330255.803823654481675,4156629.738065192475915
330255.645239039789885,4156629.763508019968867
330255.478045783587731,4156629.800227417144924
330255.310625713318586,4156629.825850856490433
330255.152267916942947,4156629.862389654852450
330254.984621034935117,4156629.876917137298733
330254.808365509787109,4156629.902721193153411
330254.640945445164107,4156629.928344645071775
330254.464463107404299,4156629.943052744027227
330254.287980772438459,4156629.957760849501938
330254.120560707699042,4156629.983384312596172
330253.952913828776218,4156629.997911815065891
330253.785493767762091,4156630.023535285145044
330253.617846889887005,4156630.038062795531005
330253.459035469801165,4156630.052409701980650
330253.309286325355060,4156630.077671966049820
330253.141866264981218,4156630.103295448701829
330252.983281664957758,4156630.128738326486200
330252.815634789702017,4156630.143265853170305
330252.666112464910839,4156630.179624090902507
330252.498692407913040,4156630.205247587058693
330252.322436896851286,4156630.231051695998758
330252.155243658926338,4156630.267771162558347
330251.978988147689961,4156630.293575277552009
330251.802732639480382,4156630.319379397667944
330251.635539405106101,4156630.356098874006420
330251.459283898933791,4156630.381903001572937
330251.292090666946024,4156630.418622483965009
330251.133959711994976,4156630.466257325373590
330250.966766485129483,4156630.502976814284921
330250.799573257274460,4156630.539696308784187
330250.623771393322386,4156630.587692379020154
330250.456578170589637,4156630.624411880038679
330250.289384946925566,4156630.661131383385509
330250.131027181283571,4156630.697670278605074
330249.963833962334320,4156630.734389789868146
330249.796640744782053,4156630.771109303459525
330249.638736624561716,4156630.829840136226267
330249.463388414354995,4156630.900028157513589
330249.305484300828539,4156630.958758994471282
330249.129909274342936,4156631.017851060256362
330248.945498793851584,4156631.077123743481934
330248.778759228298441,4156631.136035203002393
330248.594348754850216,4156631.195307894609869
330248.427609193895478,4156631.254219362977892
330248.252261001674924,4156631.324407411273569
330248.068077358533628,4156631.394776076544076
330247.910400083987042,4156631.464602904859930
330247.832468740758486,4156631.543900170829147
330247.655986443860456,4156631.558608417399228
330247.515526439878158,4156631.605882097966969
330247.349013719998766,4156631.675889551639557
330247.165510561666451,4156631.779546125326306
330246.980419638915919,4156631.805530965328217
330246.822288731229492,4156631.853165888227522
330246.655549194430932,4156631.912077392917126
330246.488809659727849,4156631.970988900400698
330246.322296955040656,4156632.040996375493705
330246.164392882608809,4156632.099727273453027
330245.988817899487913,4156632.158819408155978
330245.822305199981201,4156632.228826892562211
330245.655565676919650,4156632.287738417275250
330245.497888439800590,4156632.357565292622894
330245.331148921395652,4156632.416476824320853
330245.164636234228965,4156632.486484322231263
330244.980225810431875,4156632.545757096260786
330244.804650844074786,4156632.604849255643785
330244.611858627875336,4156632.686494580470026
330244.409777300141286,4156632.746128600556403
330244.199314179131761,4156632.828135170973837
330244.015357427997515,4156632.909599891398102
330243.875577952887397,4156632.990161524154246
330243.708611628273502,4156633.037977127823979
